 = TP-Fit Report =

TP-Fit Version 1.1

1858035C_202109151047.dat processed by IODP (15-Sep-2021 12:46:35)

 == Results ==
	Estimated formation temperature (°C):	 1.88
	Mean misfit (°C):	 0.043

 == Model Parameters ==
	k (W/(m K)):	 2.40
	rc (MJ/(m³K)):	 4.30
	t-sft (s):	 -36.914
	Model Type:	 APCT_T

 == Picks ==
	t0 (s):	 4520
	Window Start (s):	 9
	Window Stop (s):	 611

 == Meta Data ==

	Expedition:	 396
	Site:	 U1572
	Hole:	 B
	Core:	 04
	Core type:	 H

	Depth (mbsf):	 35.3
	Depth error (m):	 0

	Sediment thermal conductivity (W/(m K)):	 1
	Sediment heat capacity (J/(m³ K)):	 3.4e6

	Tool type:	 APCT-3
	Data format:	 ANTARES

	Estimated temperature error (°C):	 1
	Data quality description:	 None
	Data quality number:	 1

 == Comment ==


 == Plots ==
[[1858035C_202109151047_Result.eps | {{1858035C_202109151047_Result.png}}]]
[[1858035C_202109151047_Contours.eps | {{1858035C_202109151047_Contours.png}}]]

 == Results vs time-shift ==
	Time-shift (s)	Mean misfit (°C)	Temperature (°C)
	   -50.000	     0.046	     1.776
	   -47.500	     0.045	     1.795
	   -45.000	     0.045	     1.815
	   -42.500	     0.044	     1.835
	   -40.000	     0.044	     1.855
	   -37.500	     0.044	     1.875
	   -36.914	     0.044	     1.880
	   -35.000	     0.044	     1.896
	   -32.500	     0.044	     1.917
	   -30.000	     0.045	     1.938
	   -27.500	     0.045	     1.960
	   -25.000	     0.047	     1.982
	   -22.500	     0.048	     2.005
	   -20.000	     0.051	     2.029
	   -17.500	     0.053	     2.053
	   -15.000	     0.056	     2.078
	   -12.500	     0.060	     2.103
	   -10.000	     0.064	     2.130
	    -7.500	     0.069	     2.158
	    -5.000	     0.075	     2.188
	    -2.500	     0.082	     2.220
	     0.000	     0.090	     2.254
	     2.500	     0.101	     2.292
	     5.000	     0.114	     2.336
	     7.500	     0.134	     2.394
	     9.000	     0.155	     2.445
 == Data and model ==
	Time (s)	T_Data (°C)	T_Model (°C)
	   -4520.0	   21.2880	       NaN
	   -4519.0	   21.2880	       NaN
	   -4518.0	   21.2880	       NaN
	   -4517.0	   21.2880	       NaN
	   -4516.0	   21.2880	       NaN
	   -4515.0	   21.2880	       NaN
	   -4514.0	   21.2880	       NaN
	   -4513.0	   21.2880	       NaN
	   -4512.0	   21.2880	       NaN
	   -4511.0	   21.2890	       NaN
	   -4510.0	   21.2880	       NaN
	   -4509.0	   21.2880	       NaN
	   -4508.0	   21.2890	       NaN
	   -4507.0	   21.2890	       NaN
	   -4506.0	   21.2880	       NaN
	   -4505.0	   21.2880	       NaN
	   -4504.0	   21.2890	       NaN
	   -4503.0	   21.2890	       NaN
	   -4502.0	   21.2880	       NaN
	   -4501.0	   21.2890	       NaN
	   -4500.0	   21.2880	       NaN
	   -4499.0	   21.2880	       NaN
	   -4498.0	   21.2890	       NaN
	   -4497.0	   21.2880	       NaN
	   -4496.0	   21.2880	       NaN
	   -4495.0	   21.2890	       NaN
	   -4494.0	   21.2890	       NaN
	   -4493.0	   21.2890	       NaN
	   -4492.0	   21.2890	       NaN
	   -4491.0	   21.2880	       NaN
	   -4490.0	   21.2880	       NaN
	   -4489.0	   21.2880	       NaN
	   -4488.0	   21.2890	       NaN
	   -4487.0	   21.2890	       NaN
	   -4486.0	   21.2890	       NaN
	   -4485.0	   21.2890	       NaN
	   -4484.0	   21.2890	       NaN
	   -4483.0	   21.2890	       NaN
	   -4482.0	   21.2890	       NaN
	   -4481.0	   21.2890	       NaN
	   -4480.0	   21.2890	       NaN
	   -4479.0	   21.2890	       NaN
	   -4478.0	   21.3050	       NaN
	   -4477.0	   21.3780	       NaN
	   -4476.0	   21.4900	       NaN
	   -4475.0	   21.5950	       NaN
	   -4474.0	   21.6380	       NaN
	   -4473.0	   21.6370	       NaN
	   -4472.0	   21.6250	       NaN
	   -4471.0	   21.6560	       NaN
	   -4470.0	   21.7020	       NaN
	   -4469.0	   21.7090	       NaN
	   -4468.0	   21.6950	       NaN
	   -4467.0	   21.6770	       NaN
	   -4466.0	   21.6600	       NaN
	   -4465.0	   21.6470	       NaN
	   -4464.0	   21.6350	       NaN
	   -4463.0	   21.6330	       NaN
	   -4462.0	   21.6750	       NaN
	   -4461.0	   21.7180	       NaN
	   -4460.0	   21.7310	       NaN
	   -4459.0	   21.7280	       NaN
	   -4458.0	   21.7220	       NaN
	   -4457.0	   21.7130	       NaN
	   -4456.0	   21.7050	       NaN
	   -4455.0	   21.6960	       NaN
	   -4454.0	   21.6890	       NaN
	   -4453.0	   21.6820	       NaN
	   -4452.0	   21.6750	       NaN
	   -4451.0	   21.6690	       NaN
	   -4450.0	   21.6630	       NaN
	   -4449.0	   21.6580	       NaN
	   -4448.0	   21.6540	       NaN
	   -4447.0	   21.6490	       NaN
	   -4446.0	   21.6430	       NaN
	   -4445.0	   21.6380	       NaN
	   -4444.0	   21.6350	       NaN
	   -4443.0	   21.6300	       NaN
	   -4442.0	   21.6260	       NaN
	   -4441.0	   21.6230	       NaN
	   -4440.0	   21.6180	       NaN
	   -4439.0	   21.6150	       NaN
	   -4438.0	   21.6120	       NaN
	   -4437.0	   21.6080	       NaN
	   -4436.0	   21.6040	       NaN
	   -4435.0	   21.6020	       NaN
	   -4434.0	   21.5980	       NaN
	   -4433.0	   21.5960	       NaN
	   -4432.0	   21.5920	       NaN
	   -4431.0	   21.5900	       NaN
	   -4430.0	   21.5860	       NaN
	   -4429.0	   21.5840	       NaN
	   -4428.0	   21.5820	       NaN
	   -4427.0	   21.5790	       NaN
	   -4426.0	   21.5770	       NaN
	   -4425.0	   21.5730	       NaN
	   -4424.0	   21.5710	       NaN
	   -4423.0	   21.5680	       NaN
	   -4422.0	   21.5660	       NaN
	   -4421.0	   21.5640	       NaN
	   -4420.0	   21.5610	       NaN
	   -4419.0	   21.5590	       NaN
	   -4418.0	   21.5560	       NaN
	   -4417.0	   21.5530	       NaN
	   -4416.0	   21.5520	       NaN
	   -4415.0	   21.5500	       NaN
	   -4414.0	   21.5470	       NaN
	   -4413.0	   21.5460	       NaN
	   -4412.0	   21.5440	       NaN
	   -4411.0	   21.5420	       NaN
	   -4410.0	   21.5400	       NaN
	   -4409.0	   21.5380	       NaN
	   -4408.0	   21.5360	       NaN
	   -4407.0	   21.5340	       NaN
	   -4406.0	   21.5320	       NaN
	   -4405.0	   21.5310	       NaN
	   -4404.0	   21.5290	       NaN
	   -4403.0	   21.5280	       NaN
	   -4402.0	   21.5260	       NaN
	   -4401.0	   21.5250	       NaN
	   -4400.0	   21.5230	       NaN
	   -4399.0	   21.5220	       NaN
	   -4398.0	   21.5210	       NaN
	   -4397.0	   21.5190	       NaN
	   -4396.0	   21.5180	       NaN
	   -4395.0	   21.5160	       NaN
	   -4394.0	   21.5150	       NaN
	   -4393.0	   21.5150	       NaN
	   -4392.0	   21.5130	       NaN
	   -4391.0	   21.5110	       NaN
	   -4390.0	   21.5100	       NaN
	   -4389.0	   21.5090	       NaN
	   -4388.0	   21.5090	       NaN
	   -4387.0	   21.5070	       NaN
	   -4386.0	   21.5060	       NaN
	   -4385.0	   21.5060	       NaN
	   -4384.0	   21.5560	       NaN
	   -4383.0	   21.5960	       NaN
	   -4382.0	   21.6060	       NaN
	   -4381.0	   21.6040	       NaN
	   -4380.0	   21.6010	       NaN
	   -4379.0	   21.5980	       NaN
	   -4378.0	   21.5980	       NaN
	   -4377.0	   21.6010	       NaN
	   -4376.0	   21.6090	       NaN
	   -4375.0	   21.6170	       NaN
	   -4374.0	   21.6360	       NaN
	   -4373.0	   21.6730	       NaN
	   -4372.0	   21.6950	       NaN
	   -4371.0	   21.7160	       NaN
	   -4370.0	   21.7300	       NaN
	   -4369.0	   21.7360	       NaN
	   -4368.0	   21.7400	       NaN
	   -4367.0	   21.7420	       NaN
	   -4366.0	   21.7430	       NaN
	   -4365.0	   21.7450	       NaN
	   -4364.0	   21.7470	       NaN
	   -4363.0	   21.7480	       NaN
	   -4362.0	   21.7500	       NaN
	   -4361.0	   21.7520	       NaN
	   -4360.0	   21.7540	       NaN
	   -4359.0	   21.7550	       NaN
	   -4358.0	   21.7580	       NaN
	   -4357.0	   21.7600	       NaN
	   -4356.0	   21.7630	       NaN
	   -4355.0	   21.7660	       NaN
	   -4354.0	   21.7670	       NaN
	   -4353.0	   21.7700	       NaN
	   -4352.0	   21.7720	       NaN
	   -4351.0	   21.7740	       NaN
	   -4350.0	   21.7760	       NaN
	   -4349.0	   21.7780	       NaN
	   -4348.0	   21.7800	       NaN
	   -4347.0	   21.7810	       NaN
	   -4346.0	   21.7830	       NaN
	   -4345.0	   21.7850	       NaN
	   -4344.0	   21.7860	       NaN
	   -4343.0	   21.7870	       NaN
	   -4342.0	   21.7870	       NaN
	   -4341.0	   21.7890	       NaN
	   -4340.0	   21.7900	       NaN
	   -4339.0	   21.7910	       NaN
	   -4338.0	   21.7910	       NaN
	   -4337.0	   21.7920	       NaN
	   -4336.0	   21.7920	       NaN
	   -4335.0	   21.7920	       NaN
	   -4334.0	   21.7920	       NaN
	   -4333.0	   21.7920	       NaN
	   -4332.0	   21.7920	       NaN
	   -4331.0	   21.7920	       NaN
	   -4330.0	   21.7910	       NaN
	   -4329.0	   21.7910	       NaN
	   -4328.0	   21.7900	       NaN
	   -4327.0	   21.7890	       NaN
	   -4326.0	   21.7900	       NaN
	   -4325.0	   21.7890	       NaN
	   -4324.0	   21.7890	       NaN
	   -4323.0	   21.7880	       NaN
	   -4322.0	   21.7870	       NaN
	   -4321.0	   21.7870	       NaN
	   -4320.0	   21.7870	       NaN
	   -4319.0	   21.7860	       NaN
	   -4318.0	   21.7860	       NaN
	   -4317.0	   21.7850	       NaN
	   -4316.0	   21.7830	       NaN
	   -4315.0	   21.7820	       NaN
	   -4314.0	   21.7820	       NaN
	   -4313.0	   21.7820	       NaN
	   -4312.0	   21.7800	       NaN
	   -4311.0	   21.7800	       NaN
	   -4310.0	   21.7800	       NaN
	   -4309.0	   21.7800	       NaN
	   -4308.0	   21.7820	       NaN
	   -4307.0	   21.7860	       NaN
	   -4306.0	   21.7910	       NaN
	   -4305.0	   21.7950	       NaN
	   -4304.0	   21.8000	       NaN
	   -4303.0	   21.8050	       NaN
	   -4302.0	   21.8080	       NaN
	   -4301.0	   21.8120	       NaN
	   -4300.0	   21.8150	       NaN
	   -4299.0	   21.8180	       NaN
	   -4298.0	   21.8200	       NaN
	   -4297.0	   21.8220	       NaN
	   -4296.0	   21.8240	       NaN
	   -4295.0	   21.8260	       NaN
	   -4294.0	   21.8270	       NaN
	   -4293.0	   21.8290	       NaN
	   -4292.0	   21.8320	       NaN
	   -4291.0	   21.8340	       NaN
	   -4290.0	   21.8370	       NaN
	   -4289.0	   21.8400	       NaN
	   -4288.0	   21.8430	       NaN
	   -4287.0	   21.8480	       NaN
	   -4286.0	   21.8530	       NaN
	   -4285.0	   21.8590	       NaN
	   -4284.0	   21.8680	       NaN
	   -4283.0	   21.8880	       NaN
	   -4282.0	   21.9120	       NaN
	   -4281.0	   21.9390	       NaN
	   -4280.0	   21.9680	       NaN
	   -4279.0	   21.9990	       NaN
	   -4278.0	   22.0320	       NaN
	   -4277.0	   22.0650	       NaN
	   -4276.0	   22.0980	       NaN
	   -4275.0	   22.1280	       NaN
	   -4274.0	   22.1770	       NaN
	   -4273.0	   22.2640	       NaN
	   -4272.0	   22.3580	       NaN
	   -4271.0	   22.4540	       NaN
	   -4270.0	   22.5370	       NaN
	   -4269.0	   22.6000	       NaN
	   -4268.0	   22.6580	       NaN
	   -4267.0	   22.6750	       NaN
	   -4266.0	   22.6690	       NaN
	   -4265.0	   22.6580	       NaN
	   -4264.0	   22.6420	       NaN
	   -4263.0	   22.6210	       NaN
	   -4262.0	   22.5980	       NaN
	   -4261.0	   22.5740	       NaN
	   -4260.0	   22.5510	       NaN
	   -4259.0	   22.5300	       NaN
	   -4258.0	   22.5080	       NaN
	   -4257.0	   22.4930	       NaN
	   -4256.0	   22.4830	       NaN
	   -4255.0	   22.4750	       NaN
	   -4254.0	   22.4690	       NaN
	   -4253.0	   22.4630	       NaN
	   -4252.0	   22.4560	       NaN
	   -4251.0	   22.4500	       NaN
	   -4250.0	   22.4430	       NaN
	   -4249.0	   22.4360	       NaN
	   -4248.0	   22.4290	       NaN
	   -4247.0	   22.4210	       NaN
	   -4246.0	   22.4130	       NaN
	   -4245.0	   22.4050	       NaN
	   -4244.0	   22.3980	       NaN
	   -4243.0	   22.3900	       NaN
	   -4242.0	   22.3810	       NaN
	   -4241.0	   22.3710	       NaN
	   -4240.0	   22.3610	       NaN
	   -4239.0	   22.3530	       NaN
	   -4238.0	   22.3450	       NaN
	   -4237.0	   22.3380	       NaN
	   -4236.0	   22.3300	       NaN
	   -4235.0	   22.3220	       NaN
	   -4234.0	   22.3140	       NaN
	   -4233.0	   22.3040	       NaN
	   -4232.0	   22.2940	       NaN
	   -4231.0	   22.2820	       NaN
	   -4230.0	   22.2730	       NaN
	   -4229.0	   22.2650	       NaN
	   -4228.0	   22.2560	       NaN
	   -4227.0	   22.2440	       NaN
	   -4226.0	   22.2330	       NaN
	   -4225.0	   22.2230	       NaN
	   -4224.0	   22.2130	       NaN
	   -4223.0	   22.2030	       NaN
	   -4222.0	   22.1930	       NaN
	   -4221.0	   22.1830	       NaN
	   -4220.0	   22.1730	       NaN
	   -4219.0	   22.1630	       NaN
	   -4218.0	   22.1530	       NaN
	   -4217.0	   22.1440	       NaN
	   -4216.0	   22.1340	       NaN
	   -4215.0	   22.1230	       NaN
	   -4214.0	   22.1130	       NaN
	   -4213.0	   22.1020	       NaN
	   -4212.0	   22.0920	       NaN
	   -4211.0	   22.0800	       NaN
	   -4210.0	   22.0680	       NaN
	   -4209.0	   22.0580	       NaN
	   -4208.0	   22.0500	       NaN
	   -4207.0	   22.0400	       NaN
	   -4206.0	   22.0310	       NaN
	   -4205.0	   22.0200	       NaN
	   -4204.0	   22.0100	       NaN
	   -4203.0	   21.9990	       NaN
	   -4202.0	   21.9900	       NaN
	   -4201.0	   21.9820	       NaN
	   -4200.0	   21.9740	       NaN
	   -4199.0	   21.9650	       NaN
	   -4198.0	   21.9560	       NaN
	   -4197.0	   21.9480	       NaN
	   -4196.0	   21.9370	       NaN
	   -4195.0	   21.9270	       NaN
	   -4194.0	   21.9170	       NaN
	   -4193.0	   21.9070	       NaN
	   -4192.0	   21.8960	       NaN
	   -4191.0	   21.8860	       NaN
	   -4190.0	   21.8760	       NaN
	   -4189.0	   21.8660	       NaN
	   -4188.0	   21.8540	       NaN
	   -4187.0	   21.8420	       NaN
	   -4186.0	   21.8310	       NaN
	   -4185.0	   21.8210	       NaN
	   -4184.0	   21.8120	       NaN
	   -4183.0	   21.8020	       NaN
	   -4182.0	   21.7950	       NaN
	   -4181.0	   21.7880	       NaN
	   -4180.0	   21.7810	       NaN
	   -4179.0	   21.7730	       NaN
	   -4178.0	   21.7620	       NaN
	   -4177.0	   21.7530	       NaN
	   -4176.0	   21.7410	       NaN
	   -4175.0	   21.7310	       NaN
	   -4174.0	   21.7210	       NaN
	   -4173.0	   21.7120	       NaN
	   -4172.0	   21.7010	       NaN
	   -4171.0	   21.6930	       NaN
	   -4170.0	   21.6830	       NaN
	   -4169.0	   21.6760	       NaN
	   -4168.0	   21.6690	       NaN
	   -4167.0	   21.6620	       NaN
	   -4166.0	   21.6530	       NaN
	   -4165.0	   21.6440	       NaN
	   -4164.0	   21.6360	       NaN
	   -4163.0	   21.6240	       NaN
	   -4162.0	   21.6130	       NaN
	   -4161.0	   21.6000	       NaN
	   -4160.0	   21.5890	       NaN
	   -4159.0	   21.5790	       NaN
	   -4158.0	   21.5710	       NaN
	   -4157.0	   21.5620	       NaN
	   -4156.0	   21.5540	       NaN
	   -4155.0	   21.5470	       NaN
	   -4154.0	   21.5370	       NaN
	   -4153.0	   21.5280	       NaN
	   -4152.0	   21.5170	       NaN
	   -4151.0	   21.5060	       NaN
	   -4150.0	   21.4960	       NaN
	   -4149.0	   21.4840	       NaN
	   -4148.0	   21.4740	       NaN
	   -4147.0	   21.4670	       NaN
	   -4146.0	   21.4610	       NaN
	   -4145.0	   21.4550	       NaN
	   -4144.0	   21.4470	       NaN
	   -4143.0	   21.4400	       NaN
	   -4142.0	   21.4290	       NaN
	   -4141.0	   21.4190	       NaN
	   -4140.0	   21.4100	       NaN
	   -4139.0	   21.4010	       NaN
	   -4138.0	   21.3920	       NaN
	   -4137.0	   21.3810	       NaN
	   -4136.0	   21.3720	       NaN
	   -4135.0	   21.3620	       NaN
	   -4134.0	   21.3540	       NaN
	   -4133.0	   21.3470	       NaN
	   -4132.0	   21.3410	       NaN
	   -4131.0	   21.3320	       NaN
	   -4130.0	   21.3240	       NaN
	   -4129.0	   21.3150	       NaN
	   -4128.0	   21.3070	       NaN
	   -4127.0	   21.3010	       NaN
	   -4126.0	   21.2950	       NaN
	   -4125.0	   21.2880	       NaN
	   -4124.0	   21.2790	       NaN
	   -4123.0	   21.2720	       NaN
	   -4122.0	   21.2630	       NaN
	   -4121.0	   21.2530	       NaN
	   -4120.0	   21.2450	       NaN
	   -4119.0	   21.2380	       NaN
	   -4118.0	   21.2330	       NaN
	   -4117.0	   21.2270	       NaN
	   -4116.0	   21.2220	       NaN
	   -4115.0	   21.2160	       NaN
	   -4114.0	   21.2100	       NaN
	   -4113.0	   21.2010	       NaN
	   -4112.0	   21.1930	       NaN
	   -4111.0	   21.1850	       NaN
	   -4110.0	   21.1760	       NaN
	   -4109.0	   21.1680	       NaN
	   -4108.0	   21.1610	       NaN
	   -4107.0	   21.1520	       NaN
	   -4106.0	   21.1440	       NaN
	   -4105.0	   21.1370	       NaN
	   -4104.0	   21.1300	       NaN
	   -4103.0	   21.1240	       NaN
	   -4102.0	   21.1190	       NaN
	   -4101.0	   21.1100	       NaN
	   -4100.0	   21.1030	       NaN
	   -4099.0	   21.0940	       NaN
	   -4098.0	   21.0860	       NaN
	   -4097.0	   21.0800	       NaN
	   -4096.0	   21.0730	       NaN
	   -4095.0	   21.0650	       NaN
	   -4094.0	   21.0570	       NaN
	   -4093.0	   21.0490	       NaN
	   -4092.0	   21.0420	       NaN
	   -4091.0	   21.0360	       NaN
	   -4090.0	   21.0310	       NaN
	   -4089.0	   21.0260	       NaN
	   -4088.0	   21.0220	       NaN
	   -4087.0	   21.0180	       NaN
	   -4086.0	   21.0140	       NaN
	   -4085.0	   21.0090	       NaN
	   -4084.0	   21.0010	       NaN
	   -4083.0	   20.9930	       NaN
	   -4082.0	   20.9850	       NaN
	   -4081.0	   20.9760	       NaN
	   -4080.0	   20.9700	       NaN
	   -4079.0	   20.9650	       NaN
	   -4078.0	   20.9590	       NaN
	   -4077.0	   20.9540	       NaN
	   -4076.0	   20.9500	       NaN
	   -4075.0	   20.9460	       NaN
	   -4074.0	   20.9400	       NaN
	   -4073.0	   20.9330	       NaN
	   -4072.0	   20.9250	       NaN
	   -4071.0	   20.9170	       NaN
	   -4070.0	   20.9110	       NaN
	   -4069.0	   20.9040	       NaN
	   -4068.0	   20.8980	       NaN
	   -4067.0	   20.8910	       NaN
	   -4066.0	   20.8840	       NaN
	   -4065.0	   20.8780	       NaN
	   -4064.0	   20.8720	       NaN
	   -4063.0	   20.8650	       NaN
	   -4062.0	   20.8570	       NaN
	   -4061.0	   20.8470	       NaN
	   -4060.0	   20.8400	       NaN
	   -4059.0	   20.8350	       NaN
	   -4058.0	   20.8300	       NaN
	   -4057.0	   20.8260	       NaN
	   -4056.0	   20.8200	       NaN
	   -4055.0	   20.8130	       NaN
	   -4054.0	   20.8060	       NaN
	   -4053.0	   20.7980	       NaN
	   -4052.0	   20.7900	       NaN
	   -4051.0	   20.7840	       NaN
	   -4050.0	   20.7780	       NaN
	   -4049.0	   20.7730	       NaN
	   -4048.0	   20.7700	       NaN
	   -4047.0	   20.7660	       NaN
	   -4046.0	   20.7610	       NaN
	   -4045.0	   20.7530	       NaN
	   -4044.0	   20.7460	       NaN
	   -4043.0	   20.7360	       NaN
	   -4042.0	   20.7290	       NaN
	   -4041.0	   20.7220	       NaN
	   -4040.0	   20.7140	       NaN
	   -4039.0	   20.7050	       NaN
	   -4038.0	   20.6980	       NaN
	   -4037.0	   20.6910	       NaN
	   -4036.0	   20.6850	       NaN
	   -4035.0	   20.6800	       NaN
	   -4034.0	   20.6740	       NaN
	   -4033.0	   20.6690	       NaN
	   -4032.0	   20.6610	       NaN
	   -4031.0	   20.6540	       NaN
	   -4030.0	   20.6470	       NaN
	   -4029.0	   20.6410	       NaN
	   -4028.0	   20.6360	       NaN
	   -4027.0	   20.6300	       NaN
	   -4026.0	   20.6230	       NaN
	   -4025.0	   20.6170	       NaN
	   -4024.0	   20.6130	       NaN
	   -4023.0	   20.6080	       NaN
	   -4022.0	   20.6020	       NaN
	   -4021.0	   20.5960	       NaN
	   -4020.0	   20.5900	       NaN
	   -4019.0	   20.5820	       NaN
	   -4018.0	   20.5770	       NaN
	   -4017.0	   20.5710	       NaN
	   -4016.0	   20.5650	       NaN
	   -4015.0	   20.5590	       NaN
	   -4014.0	   20.5530	       NaN
	   -4013.0	   20.5470	       NaN
	   -4012.0	   20.5430	       NaN
	   -4011.0	   20.5380	       NaN
	   -4010.0	   20.5330	       NaN
	   -4009.0	   20.5270	       NaN
	   -4008.0	   20.5210	       NaN
	   -4007.0	   20.5160	       NaN
	   -4006.0	   20.5110	       NaN
	   -4005.0	   20.5070	       NaN
	   -4004.0	   20.5020	       NaN
	   -4003.0	   20.4990	       NaN
	   -4002.0	   20.4960	       NaN
	   -4001.0	   20.4920	       NaN
	   -4000.0	   20.4860	       NaN
	   -3999.0	   20.4810	       NaN
	   -3998.0	   20.4770	       NaN
	   -3997.0	   20.4740	       NaN
	   -3996.0	   20.4690	       NaN
	   -3995.0	   20.4630	       NaN
	   -3994.0	   20.4590	       NaN
	   -3993.0	   20.4540	       NaN
	   -3992.0	   20.4500	       NaN
	   -3991.0	   20.4450	       NaN
	   -3990.0	   20.4410	       NaN
